#Cosmological Parameters: Om_m = 3.1750000000e-01, Om_l = 6.8250000000e-01, Om_r = 0.0000000000e+00
#a_max = 1.0100000000e+00
#t              eta(t)              w(eta)              z(eta)              a(eta)              H(eta)       H_prime(eta)
1.4789275167e-07    1.7747130195e-02    3.2120287802e+00    3.9999000000e+04    2.5000000000e-05    1.1269427670e+02   -6.3500000000e+03
5.3165169620e-07    2.7186600589e-02    3.2025893098e+00    1.7044370607e+04    5.8666955565e-05    7.3565652092e+01   -2.7059525839e+03
1.0497326956e-06    3.4106625060e-02    3.1956692853e+00    1.0829257137e+04    9.2333911130e-05    5.8639633704e+01   -1.7193033205e+03
1.6733900209e-06    3.9842345493e-02    3.1899335649e+00    7.9354533453e+03    1.2600086670e-04    5.0197847933e+01   -1.2599119686e+03
2.3870580413e-06    4.4850452793e-02    3.1849254576e+00    6.2620026880e+03    1.5966782226e-04    4.4592637884e+01   -9.9425167670e+02
3.1805472488e-06    4.9352950642e-02    3.1804229597e+00    5.1713751476e+03    1.9333477783e-04    4.0524426084e+01   -8.2111455466e+02
4.0465101713e-06    5.3477699637e-02    3.1762982107e+00    4.4042527047e+03    2.2700173339e-04    3.7398766474e+01   -6.9933386684e+02
4.9793216069e-06    5.7306325827e-02    3.1724695845e+00    3.8352873731e+03    2.6066868896e-04    3.4900161045e+01   -6.0901062043e+02
5.9744944868e-06    6.0894709139e-02    3.1688812012e+00    3.3964818158e+03    2.9433564452e-04    3.2843575880e+01   -5.3935023820e+02
7.0283406982e-06    6.4283094375e-02    3.1654928160e+00    3.0477563200e+03    3.2800260009e-04    3.1112379075e+01   -4.8399006573e+02
8.1377586430e-06    6.7501606231e-02    3.1622743041e+00    2.7639548721e+03    3.6166955565e-04    2.9628924584e+01   -4.3893658586e+02
9.3000924154e-06    7.0573489818e-02    3.1592024205e+00    2.5284906279e+03    3.9533651122e-04    2.8339253245e+01   -4.0155663708e+02
1.0513034237e-05    7.3517127844e-02    3.1562587825e+00    2.3299834941e+03    4.2900346678e-04    2.7204544832e+01   -3.7004362957e+02
1.1774554420e-05    7.6347355604e-02    3.1534285547e+00    2.1603657405e+03    4.6267042235e-04    2.6196061207e+01   -3.4311681116e+02
1.3082849612e-05    7.9076351262e-02    3.1506995591e+00    2.0137585987e+03    4.9633737791e-04    2.5292011689e+01   -3.1984292737e+02
1.4436303603e-05    8.1714257937e-02    3.1480616524e+00    1.8857770258e+03    5.3000433348e-04    2.4475532801e+01   -2.9952585266e+02
1.5833457023e-05    8.4269630185e-02    3.1455062802e+00    1.7730836183e+03    5.6367128904e-04    2.3733342559e+01   -2.8163577419e+02
1.7272983499e-05    8.6749761917e-02    3.1430261484e+00    1.6730933785e+03    5.9733824461e-04    2.3054818323e+01   -2.6576232359e+02
1.8753670601e-05    8.9160932106e-02    3.1406149782e+00    1.5837729935e+03    6.3100520017e-04    2.2431349173e+01   -2.5158271245e+02
2.0274404399e-05    9.1508592138e-02    3.1382673182e+00    1.5035011159e+03    6.6467215574e-04    2.1855871170e+01   -2.3883955184e+02
2.1834156805e-05    9.3797510928e-02    3.1359783994e+00    1.4309690589e+03    6.9833911130e-04    2.1322527442e+01   -2.2732508777e+02
2.3431975082e-05    9.6031888857e-02    3.1337440215e+00    1.3651088962e+03    7.3200606687e-04    2.0826415316e+01   -2.1686978690e+02
2.5066973064e-05    9.8215448370e-02    3.1315604620e+00    1.3050405300e+03    7.6567302243e-04    2.0363395313e+01   -2.0733393373e+02
2.6738323745e-05    1.0035150681e-01    3.1294244035e+00    1.2500321359e+03    7.9933997800e-04    1.9929944897e+01   -1.9860135114e+02
2.8445252975e-05    1.0244303559e-01    3.1273328748e+00    1.1994701998e+03    8.3300693356e-04    1.9523045073e+01   -1.9057464375e+02
3.0187034059e-05    1.0449270865e-01    3.1252832017e+00    1.1528365382e+03    8.6667388913e-04    1.9140091468e+01   -1.8317154993e+02
3.1962983095e-05    1.0650294260e-01    3.1232729677e+00    1.1096904745e+03    9.0034084469e-04    1.8778823877e+01   -1.7632211227e+02
3.3772454933e-05    1.0847593007e-01    3.1212999803e+00    1.0696548700e+03    9.3400780026e-04    1.8437269913e+01   -1.6996646002e+02
3.5614839649e-05    1.1041366774e-01    3.1193622426e+00    1.0324050713e+03    9.6767475583e-04    1.8113699533e+01   -1.6405305442e+02
3.7489559449e-05    1.1231798006e-01    3.1174579303e+00    9.9766008639e+02    1.0013417114e-03    1.7806588054e+01   -1.5853728803e+02
3.9396065943e-05    1.1419053930e-01    3.1155853710e+00    9.6517548425e+02    1.0350086670e-03    1.7514585835e+01   -1.5338035739e+02
4.1333837734e-05    1.1603288278e-01    3.1137430276e+00    9.3473763537e+02    1.0686756225e-03    1.7236493263e+01   -1.4854834884e+02
4.3302378274e-05    1.1784642764e-01    3.1119294827e+00    9.0615900835e+02    1.1023425781e-03    1.6971239966e+01   -1.4401149175e+02
4.5301213946e-05    1.1963248358e-01    3.1101434268e+00    8.7927430262e+02    1.1360095337e-03    1.6717867447e+01   -1.3974354466e+02
4.7329892357e-05    1.2139226396e-01    3.1083836464e+00    8.5393724908e+02    1.1696764892e-03    1.6475514484e+01   -1.3572128736e+02
4.9387980796e-05    1.2312689539e-01    3.1066490150e+00    8.3001794782e+02    1.2033434448e-03    1.6243404798e+01   -1.3192409823e+02
5.1475064847e-05    1.2483742624e-01    3.1049384841e+00    8.0740064054e+02    1.2370104003e-03    1.6020836570e+01   -1.2833360064e+02
5.3590747135e-05    1.2652483396e-01    3.1032510764e+00    7.8598183717e+02    1.2706773559e-03    1.5807173511e+01   -1.2493336555e+02
5.5734646189e-05    1.2819003171e-01    3.1015858786e+00    7.6566873248e+02    1.3043443115e-03    1.5601837191e+01   -1.2170866012e+02
5.7906395409e-05    1.2983387405e-01    3.0999420363e+00    7.4637786193e+02    1.3380112670e-03    1.5404300451e+01   -1.1864623436e+02
6.0105642123e-05    1.3145716211e-01    3.0983187482e+00    7.2803395528e+02    1.3716782226e-03    1.5214081704e+01   -1.1573413912e+02
6.2332046730e-05    1.3306064817e-01    3.0967152622e+00    7.1056895511e+02    1.4053451782e-03    1.5030739988e+01   -1.1296157028e+02
6.4585281906e-05    1.3464503968e-01    3.0951308707e+00    6.9392117304e+02    1.4390121337e-03    1.4853870669e+01   -1.1031873481e+02
6.6865031888e-05    1.3621100297e-01    3.0935649074e+00    6.7803456175e+02    1.4726790893e-03    1.4683101676e+01   -1.0779673520e+02
6.9170991806e-05    1.3775916648e-01    3.0920167439e+00    6.6285808454e+02    1.5063460449e-03    1.4518090212e+01   -1.0538746937e+02
7.1502867069e-05    1.3929012373e-01    3.0904857866e+00    6.4834516768e+02    1.5400130004e-03    1.4358519853e+01   -1.0308354375e+02
7.3860372804e-05    1.4080443597e-01    3.0889714744e+00    6.3445322299e+02    1.5736799560e-03    1.4204098000e+01   -1.0087819746e+02
7.6243233330e-05    1.4230263458e-01    3.0874732758e+00    6.2114323044e+02    1.6073469116e-03    1.4054553619e+01   -9.8765236069e+01
7.8651181676e-05    1.4378522326e-01    3.0859906871e+00    6.0837937213e+02    1.6410138671e-03    1.3909635239e+01   -9.6738973487e+01
8.1083959129e-05    1.4525267999e-01    3.0845232304e+00    5.9612871041e+02    1.6746808227e-03    1.3769109175e+01   -9.4794180863e+01
8.3541314822e-05    1.4670545888e-01    3.0830704515e+00    5.8436090410e+02    1.7083477783e-03    1.3632757940e+01   -9.2926041534e+01
8.6023005339e-05    1.4814399172e-01    3.0816319186e+00    5.7304795756e+02    1.7420147338e-03    1.3500378832e+01   -9.1130111192e+01
8.8528794357e-05    1.4956868958e-01    3.0802072208e+00    5.6216399835e+02    1.7756816894e-03    1.3371782665e+01   -8.9402282587e+01
9.1058452309e-05    1.5097994410e-01    3.0787959663e+00    5.5168507968e+02    1.8093486450e-03    1.3246792632e+01   -8.7738754164e+01
9.3611756065e-05    1.5237812880e-01    3.0773977815e+00    5.4158900452e+02    1.8430156005e-03    1.3125243284e+01   -8.6136002149e+01
9.6188488638e-05    1.5376360023e-01    3.0760123101e+00    5.3185516869e+02    1.8766825561e-03    1.3006979606e+01   -8.4590755626e+01
9.8788438908e-05    1.5513669899e-01    3.0746392114e+00    5.2246442046e+02    1.9103495117e-03    1.2891856189e+01   -8.3099974258e+01
1.0141140136e-04    1.5649775076e-01    3.0732781596e+00    5.1339893482e+02    1.9440164672e-03    1.2779736476e+01   -8.1660828323e+01
1.0405717585e-04    1.5784706715e-01    3.0719288432e+00    5.0464210049e+02    1.9776834228e-03    1.2670492081e+01   -8.0270680783e+01
1.0672556735e-04    1.5918494661e-01    3.0705909637e+00    4.9617841842e+02    2.0113503783e-03    1.2564002173e+01   -7.8927071164e+01
1.0941638576e-04    1.6051167510e-01    3.0692642353e+00    4.8799341019e+02    2.0450173339e-03    1.2460152912e+01   -7.7627701013e+01
1.1212944571e-04    1.6182752689e-01    3.0679483835e+00    4.8007353534e+02    2.0786842895e-03    1.2358836936e+01   -7.6370420787e+01
1.1486456632e-04    1.6313276518e-01    3.0666431452e+00    4.7240611669e+02    2.1123512450e-03    1.2259952899e+01   -7.5153217979e+01
1.1762157108e-04    1.6442764273e-01    3.0653482676e+00    4.6497927255e+02    2.1460182006e-03    1.2163405040e+01   -7.3974206374e+01
1.2040028764e-04    1.6571240240e-01    3.0640635080e+00    4.5778185534e+02    2.1796851562e-03    1.2069102796e+01   -7.2831616292e+01
1.2320054766e-04    1.6698727773e-01    3.0627886326e+00    4.5080339572e+02    2.2133521117e-03    1.1976960444e+01   -7.1723785727e+01
1.2602218664e-04    1.6825249341e-01    3.0615234169e+00    4.4403405180e+02    2.2470190673e-03    1.1886896773e+01   -7.0649152278e+01
1.2886504383e-04    1.6950826574e-01    3.0602676446e+00    4.3746456284e+02    2.2806860229e-03    1.1798834784e+01   -6.9606245801e+01
1.3172896202e-04    1.7075480307e-01    3.0590211073e+00    4.3108620695e+02    2.3143529784e-03    1.1712701412e+01   -6.8593681698e+01
1.3461378744e-04    1.7199230618e-01    3.0577836042e+00    4.2489076248e+02    2.3480199340e-03    1.1628427273e+01   -6.7610154780e+01
1.3751936967e-04    1.7322096871e-01    3.0565549416e+00    4.1887047264e+02    2.3816868896e-03    1.1545946429e+01   -6.6654433660e+01
1.4044556147e-04    1.7444097745e-01    3.0553349329e+00    4.1301801314e+02    2.4153538451e-03    1.1465196167e+01   -6.5725355605e+01
1.4339221869e-04    1.7565251273e-01    3.0541233976e+00    4.0732646244e+02    2.4490208007e-03    1.1386116806e+01   -6.4821821820e+01
1.4635920016e-04    1.7685574868e-01    3.0529201617e+00    4.0178927444e+02    2.4826877563e-03    1.1308651504e+01   -6.3942793110e+01
1.4934636761e-04    1.7805085356e-01    3.0517250568e+00    3.9640025335e+02    2.5163547118e-03    1.1232746092e+01   -6.3087285898e+01
1.5235358554e-04    1.7923799002e-01    3.0505379203e+00    3.9115353061e+02    2.5500216674e-03    1.1158348910e+01   -6.2254368546e+01
1.5538072114e-04    1.8041731535e-01    3.0493585950e+00    3.8604354353e+02    2.5836886230e-03    1.1085410666e+01   -6.1443157979e+01
1.5842764421e-04    1.8158898175e-01    3.0481869286e+00    3.8106501562e+02    2.6173555785e-03    1.1013884289e+01   -6.0652816555e+01
1.6149422707e-04    1.8275313651e-01    3.0470227738e+00    3.7621293846e+02    2.6510225341e-03    1.0943724812e+01   -5.9882549184e+01
1.6458034448e-04    1.8390992229e-01    3.0458659881e+00    3.7148255482e+02    2.6846894896e-03    1.0874889244e+01   -5.9131600658e+01
1.6768587357e-04    1.8505947727e-01    3.0447164331e+00    3.6686934317e+02    2.7183564452e-03    1.0807336466e+01   -5.8399253185e+01
1.7081069374e-04    1.8620193537e-01    3.0435739750e+00    3.6236900323e+02    2.7520234008e-03    1.0741027125e+01   -5.7684824093e+01
1.7395468664e-04    1.8733742645e-01    3.0424384839e+00    3.5797744260e+02    2.7856903563e-03    1.0675923535e+01   -5.6987663717e+01
1.7711773604e-04    1.8846607641e-01    3.0413098339e+00    3.5369076437e+02    2.8193573119e-03    1.0611989593e+01   -5.6307153419e+01
1.8029972783e-04    1.8958800744e-01    3.0401879029e+00    3.4950525556e+02    2.8530242675e-03    1.0549190689e+01   -5.5642703765e+01
1.8350054989e-04    1.9070333813e-01    3.0390725722e+00    3.4541737641e+02    2.8866912230e-03    1.0487493633e+01   -5.4993752818e+01
1.8672009211e-04    1.9181218362e-01    3.0379637267e+00    3.4142375039e+02    2.9203581786e-03    1.0426866575e+01   -5.4359764554e+01
1.8995824625e-04    1.9291465572e-01    3.0368612546e+00    3.3752115489e+02    2.9540251342e-03    1.0367278941e+01   -5.3740227383e+01
1.9321490594e-04    1.9401086310e-01    3.0357650473e+00    3.3370651257e+02    2.9876920897e-03    1.0308701365e+01   -5.3134652779e+01
1.9648996663e-04    1.9510091134e-01    3.0346749990e+00    3.2997688325e+02    3.0213590453e-03    1.0251105631e+01   -5.2542573986e+01
1.9978332550e-04    1.9618490312e-01    3.0335910072e+00    3.2632945635e+02    3.0550260009e-03    1.0194464614e+01   -5.1963544826e+01
2.0309488145e-04    1.9726293828e-01    3.0325129721e+00    3.2276154383e+02    3.0886929564e-03    1.0138752225e+01   -5.1397138572e+01
2.0642453502e-04    1.9833511395e-01    3.0314407964e+00    3.1927057360e+02    3.1223599120e-03    1.0083943364e+01   -5.0842946905e+01
2.0977218839e-04    1.9940152465e-01    3.0303743857e+00    3.1585408330e+02    3.1560268676e-03    1.0030013871e+01   -5.0300578926e+01
2.1313774527e-04    2.0046226237e-01    3.0293136480e+00    3.1250971455e+02    3.1896938231e-03    9.9769404786e+00   -4.9769660241e+01
2.1652111093e-04    2.0151741672e-01    3.0282584936e+00    3.0923520749e+02    3.2233607787e-03    9.9247007748e+00   -4.9249832098e+01
2.1992219213e-04    2.0256707493e-01    3.0272088354e+00    3.0602839570e+02    3.2570277343e-03    9.8732731591e+00   -4.8740750577e+01
2.2334089707e-04    2.0361132200e-01    3.0261645883e+00    3.0288720141e+02    3.2906946898e-03    9.8226368069e+00   -4.8242085834e+01
2.2677713534e-04    2.0465024078e-01    3.0251256696e+00    2.9980963104e+02    3.3243616454e-03    9.7727716334e+00   -4.7753521385e+01
2.3023081795e-04    2.0568391199e-01    3.0240919984e+00    2.9679377094e+02    3.3580286010e-03    9.7236582606e+00   -4.7274753441e+01
2.3370185722e-04    2.0671241436e-01    3.0230634960e+00    2.9383778344e+02    3.3916955565e-03    9.6752779854e+00   -4.6805490270e+01
2.3719016680e-04    2.0773582467e-01    3.0220400857e+00    2.9093990314e+02    3.4253625121e-03    9.6276127495e+00   -4.6345451616e+01
2.4069566159e-04    2.0875421781e-01    3.0210216925e+00    2.8809843335e+02    3.4590294676e-03    9.5806451116e+00   -4.5894368128e+01
2.4421825776e-04    2.0976766684e-01    3.0200082435e+00    2.8531174280e+02    3.4926964232e-03    9.5343582199e+00   -4.5451980844e+01
2.4775787269e-04    2.1077624309e-01    3.0189996673e+00    2.8257826253e+02    3.5263633788e-03    9.4887357872e+00   -4.5018040689e+01
2.5131442494e-04    2.1178001617e-01    3.0179958942e+00    2.7989648292e+02    3.5600303343e-03    9.4437620669e+00   -4.4592308013e+01
2.5488783422e-04    2.1277905406e-01    3.0169968563e+00    2.7726495092e+02    3.5936972899e-03    9.3994218296e+00   -4.4174552144e+01
2.5847802139e-04    2.1377342315e-01    3.0160024872e+00    2.7468226743e+02    3.6273642455e-03    9.3557003421e+00   -4.3764550975e+01
2.6208490841e-04    2.1476318828e-01    3.0150127221e+00    2.7214708482e+02    3.6610312010e-03    9.3125833461e+00   -4.3362090568e+01
2.6570841830e-04    2.1574841282e-01    3.0140274975e+00    2.6965810456e+02    3.6946981566e-03    9.2700570395e+00   -4.2966964783e+01
2.6934847517e-04    2.1672915870e-01    3.0130467517e+00    2.6721407505e+02    3.7283651122e-03    9.2281080572e+00   -4.2578974927e+01
2.7300500412e-04    2.1770548644e-01    3.0120704239e+00    2.6481378946e+02    3.7620320677e-03    9.1867234536e+00   -4.2197929418e+01
2.7667793129e-04    2.1867745521e-01    3.0110984551e+00    2.6245608381e+02    3.7956990233e-03    9.1458906861e+00   -4.1823643472e+01
2.8036718378e-04    2.1964512289e-01    3.0101307875e+00    2.6013983503e+02    3.8293659789e-03    9.1055975988e+00   -4.1455938803e+01
2.8407268968e-04    2.2060854608e-01    3.0091673643e+00    2.5786395922e+02    3.8630329344e-03    9.0658324073e+00   -4.1094643341e+01
2.8779437800e-04    2.2156778013e-01    3.0082081302e+00    2.5562740992e+02    3.8966998900e-03    9.0265836845e+00   -4.0739590961e+01
2.9153217868e-04    2.2252287924e-01    3.0072530311e+00    2.5342917654e+02    3.9303668456e-03    8.9878403464e+00   -4.0390621232e+01
2.9528602257e-04    2.2347389640e-01    3.0063020140e+00    2.5126828281e+02    3.9640338011e-03    8.9495916396e+00   -4.0047579171e+01
2.9905584138e-04    2.2442088352e-01    3.0053550268e+00    2.4914378536e+02    3.9977007567e-03    8.9118271279e+00   -3.9710315018e+01
3.0284156771e-04    2.2536389140e-01    3.0044120189e+00    2.4705477232e+02    4.0313677123e-03    8.8745366811e+00   -3.9378684014e+01
3.0664313499e-04    2.2630296979e-01    3.0034729406e+00    2.4500036204e+02    4.0650346678e-03    8.8377104629e+00   -3.9052546196e+01
3.1046047749e-04    2.2723816740e-01    3.0025377430e+00    2.4297970184e+02    4.0987016234e-03    8.8013389208e+00   -3.8731766201e+01
3.1429353028e-04    2.2816953194e-01    3.0016063784e+00    2.4099196681e+02    4.1323685790e-03    8.7654127750e+00   -3.8416213076e+01
3.1814222924e-04    2.2909711017e-01    3.0006788002e+00    2.3903635872e+02    4.1660355345e-03    8.7299230087e+00   -3.8105760101e+01
3.2200651101e-04    2.3002094790e-01    2.9997549624e+00    2.3711210493e+02    4.1997024901e-03    8.6948608588e+00   -3.7800284620e+01
3.2588631300e-04    2.3094109001e-01    2.9988348203e+00    2.3521845739e+02    4.2333694456e-03    8.6602178063e+00   -3.7499667879e+01
3.2978157339e-04    2.3185758050e-01    2.9979183298e+00    2.3335469163e+02    4.2670364012e-03    8.6259855681e+00   -3.7203794870e+01
3.3369223106e-04    2.3277046251e-01    2.9970054478e+00    2.3152010591e+02    4.3007033568e-03    8.5921560885e+00   -3.6912554189e+01
3.3761822562e-04    2.3367977832e-01    2.9960961320e+00    2.2971402025e+02    4.3343703123e-03    8.5587215313e+00   -3.6625837892e+01
3.4155949740e-04    2.3458556941e-01    2.9951903409e+00    2.2793577565e+02    4.3680372679e-03    8.5256742719e+00   -3.6343541363e+01
3.4551598741e-04    2.3548787645e-01    2.9942880339e+00    2.2618473328e+02    4.4017042235e-03    8.4930068904e+00   -3.6065563185e+01
3.4948763733e-04    2.3638673933e-01    2.9933891710e+00    2.2446027370e+02    4.4353711790e-03    8.4607121643e+00   -3.5791805024e+01
3.5347438951e-04    2.3728219719e-01    2.9924937132e+00    2.2276179614e+02    4.4690381346e-03    8.4287830619e+00   -3.5522171506e+01
3.5747618697e-04    2.3817428845e-01    2.9916016219e+00    2.2108871778e+02    4.5027050902e-03    8.3972127359e+00   -3.5256570110e+01
3.6149297335e-04    2.3906305079e-01    2.9907128596e+00    2.1944047312e+02    4.5363720457e-03    8.3659945171e+00   -3.4994911063e+01
3.6552469292e-04    2.3994852120e-01    2.9898273892e+00    2.1781651332e+02    4.5700390013e-03    8.3351219087e+00   -3.4737107235e+01
3.6957129057e-04    2.4083073599e-01    2.9889451744e+00    2.1621630560e+02    4.6037059569e-03    8.3045885805e+00   -3.4483074048e+01
3.7363271181e-04    2.4170973080e-01    2.9880661795e+00    2.1463933263e+02    4.6373729124e-03    8.2743883634e+00   -3.4232729378e+01
3.7770890272e-04    2.4258554065e-01    2.9871903697e+00    2.1308509203e+02    4.6710398680e-03    8.2445152441e+00   -3.3985993468e+01
3.8179980998e-04    2.4345819991e-01    2.9863177104e+00    2.1155309576e+02    4.7047068236e-03    8.2149633603e+00   -3.3742788846e+01
3.8590538084e-04    2.4432774232e-01    2.9854481680e+00    2.1004286969e+02    4.7383737791e-03    8.1857269958e+00   -3.3503040239e+01
3.9002556312e-04    2.4519420106e-01    2.9845817093e+00    2.0855395304e+02    4.7720407347e-03    8.1568005756e+00   -3.3266674502e+01
3.9416030517e-04    2.4605760870e-01    2.9837183017e+00    2.0708589795e+02    4.8057076903e-03    8.1281786619e+00   -3.3033620537e+01
3.9830955591e-04    2.4691799724e-01    2.9828579131e+00    2.0563826903e+02    4.8393746458e-03    8.0998559494e+00   -3.2803809225e+01
